反射回数,光路長(m),位置x(mm),位置y(mm)
0,0,5.6,-6.18
1,0.02336284827883384,8.269056302976207,-3.5109436970237926
2,0.04837897409935183,2.863633694344129,2.800397223907546
3,0.0737411314007347,-5.412438098939692,6.414146742554594
4,0.09710697389418996,-8.104750323397125,3.7491878165487758
5,0.12215344008534973,-2.8799910081279467,-2.7964693445995974
6,0.14748289528539982,5.217752895543962,-6.644095814480756
7,0.17085094183300317,7.929766239763577,-3.9845430778265367
8,0.19592920770804415,2.893005711352404,2.7918170482348836
9,0.22122526863268197,-5.01629522403293,6.868851422516555
10,0.24459467853876204,-7.744559892284048,4.216381360996526
11,0.2697059456926027,-2.902915529977119,-2.786047590476281
12,0.29496821439162446,4.808480734695469,-7.087438968719457
13,0.31833811223874037,7.549700491185411,-4.4440703390278085
14,0.3434832962204294,2.91000194199602,2.778779310595448
15,0.3687116828265989,-4.5947843706055,7.298925997626839
16,0.39208117508414664,-7.345864741724134,4.666988664567204
17,0.4172608844618129,-2.9145857424053787,-2.7696479882301857
18,0.4424556132956079,4.375732195413296,-7.502441923223123
19,0.46582380533055023,7.133826825013244,-4.884540610485853
20,0.4910383289924789,2.917021482004679,2.758313220194794
21,0.5161999363646692,-4.1518908343392,7.6971955821825135
22,0.5395659494428505,-6.91444457429869,5.096169467337695
23,0.564815252561152,-2.91769109073283,-2.7444644935990317
24,0.5899445761383727,3.923854955389087,-7.882489781168305
25,0.6133075640068182,6.688642436651237,-5.301369080336798
26,0.6385912926423517,2.916997035425359,2.727826622337618
27,0.6636894526758829,-3.6922333549258832,8.05773219597105
28,0.6870486173381797,-6.457392017283322,5.499693036541315
29,0.712366111228347,-2.915355366243843,-2.7081642378712836
30,0.7374344843633212,3.457634305583535,-8.222442219349134
31,0.760789090699939,6.221691146042598,-5.690761175429486
32,0.7861394033837221,2.913188977560125,2.68528508099374
33,0.8111795901264967,-3.220650864943278,8.37625361706863
34,0.8345289790671454,-5.982542469581212,5.8742632749063635
35,0.8599109041957833,-2.91092135427717,-2.659041922900707
36,0.8849246913898321,2.981846827232778,-8.518913110397804
37,0.9082682914123189,5.74093255494419,-6.049959941099264
38,0.933680393889432,2.908971002897072,2.629333041397139
39,0.9586697137146651,-2.741743931697542,8.650275233045676
40,0.9820070505201756,-5.49781239773268,6.2176808872537634
41,1.0074477010192389,-2.907746688548219,-2.5961012795052323
42,1.0324145880792945,2.5008108306718446,-8.770293991844627
43,1.0557452923730108,5.254080075858681,-6.377320912078604
44,1.0812127037879005,2.9076435241999636,2.5593318072005786
45,1.1061592517909333,-2.259454182424486,8.879011981858373
46,1.1294830651745909,-5.010566098885796,6.528833973927249
47,1.1549753296556937,-2.909039893681918,-2.5190487827293353
48,1.1799036490436723,2.0180120849141567,-8.976547664994623
49,1.203220428098281,4.768021795562918,-6.672225802732188
50,1.2287355534911601,2.9122951401910635,2.475311161601783
51,1.2536477311551084,-1.7767499221392464,9.063081521125257
52,1.2769574498533778,-4.5271108794619925,6.807545499859487
53,1.3024933945652757,-2.917747918095465,-2.4282079265267713
54,1.3273914565269047,1.5358585674393739,-9.138841732317205
55,1.3506942071625658,4.2884041517100915,-6.934876553623189
56,1.376248912710688,2.9257150870415893,2.377853011531622
57,1.4011347903814249,-1.2954547865071362,9.204089977454881
58,1.4244307832344816,-4.052377152342517,7.054327653485634
59,1.4500022039585616,-2.9364910211064075,-2.3243801723997404
60,1.4748777043285226,1.0555836112523878,-9.259107810587636
61,1.498167266300649,3.819410463748191,-7.166023627725853
62,1.523753395934712,2.950347208764896,2.267938019108076
63,1.5486201758146463,-0.8162224143140362,9.304183985041735
64,1.5719037482679084,-3.589792301807266,7.270096765603032
65,1.5975026432512687,-2.9675320285204645,-2.2086853804215405
66,1.6223621875017988,0.5772864001064688,-9.339602977663723
67,1.6456403235180894,3.363722999359534,-7.366678722368352
68,1.6712501230770265,2.988270597384286,2.146787122027069
69,1.6961037266176981,-0.3386352369258301,9.365634871535168
70,1.7193770878679622,-3.1413209866285103,7.455893148751882
71,1.744996031014811,-3.012764602899914,-2.082410492332139
72,1.769844784311616,0.10008057989730457,-9.382526676119578
73,1.7931141376857387,2.922629896830998,-7.537849138907358
74,1.8187405773619727,3.04119204274461,2.015722027724303
75,1.84358535504353,0.13860572969113472,9.390495103362591
76,1.866851569146392,-2.707626464832902,7.6126355538383415
77,1.8924839837835141,-3.07370680841711,-1.946885013734505
78,1.9173254360278797,-0.37768296253165445,-9.389720776878363
79,1.9405894775971533,2.4962289353103384,-7.6803162514125916
80,1.9662264803879197,3.1104380609906017,1.8760574710245717
81,1.9910650267476444,0.6174324302567928,9.380343827543815
82,2.0143279569967043,-2.2883057483994365,7.740926238621151
83,2.039968303164091,-3.1514893575970353,-1.8033906153746457
84,2.0648041285497105,-0.8581481420696635,-9.36246082007957
85,2.0880670993866035,2.0836843204625786,-7.794468755519809
86,2.113709691713759,3.196937497688835,1.7290277282274626
87,2.1385427443286087,1.1001272564859117,9.336122958426337
88,2.1618069943510223,-1.8821597818088502,7.840913301624637
89,2.1874508871968237,-3.2468310688126425,-1.653103367882668
90,2.212280878302454,-1.3436603755098946,-9.301335529563097
91,2.235547728420644,1.683503569574626,-7.880194622446141
92,2.261192130396659,3.3011886833058446,1.5757428500669137
93,2.286018535882219,1.5890217192489227,9.258058562420487
94,2.3092893843783693,-1.4874718010735155,7.9122126841544995
95,2.334933659807922,-3.359996910672761,-1.4970619293470078
96,2.359755723633024,-1.8364592213597293,-9.206208697304984
97,2.3830320404282,1.2938133701585097,-7.936833675717944
98,2.408675709650537,3.4232079260466772,1.4171666188809056
99,2.4334924493238015,2.0861846001811086,9.145662278407963
100,2.4567757691944156,-1.1022777165802005,7.953892087742851
101,2.482418507720179,-3.4907369136244353,-1.3361530946863773
102,2.5072287220591742,-2.3383634867310374,-9.076259694238159
103,2.5305206365260684,0.912622216646569,-7.96319392302796
104,2.556162272997938,3.562459285622449,1.2541076414954446
105,2.5809645524846556,2.5931057280725645,8.997810994984675
106,2.604266700092253,-0.7246191339260761,7.964521092802013
107,2.6299072129603274,-3.638207802227946,-1.1711066100047116
108,2.6546999530531186,-2.8504560312013343,-8.910102808860541
109,2.6780140077667958,0.5380620530891904,-7.957637042039616
110,2.703653520555667,3.717769705900896,1.0872163695844304
111,2.728434938336965,3.110385165885936,8.812906558695023
112,2.7517625958172234,-0.3527717006496722,7.942293624648633
113,2.7774013708444554,-3.8008840133916064,-1.0024932558109256
114,2.802169525366619,-3.372782000901499,-8.705987943341093
115,2.8255124869321517,0.16860103634263002,-7.91823921269384
116,2.851150917339258,3.8872391394825265,0.9169835278315359
117,2.8759037339721085,3.6374467016053855,8.58911759472738
118,2.899263688143228,0.014560518293394775,7.88522797204812
119,2.9249022881229725,-3.9764710554598173,-0.8307233654976836
120,2.949637587100981,-3.9040854612671554,-8.462082750943377
121,2.9730161887217754,-0.19678385794365205,-7.84303017017177
122,2.9986555818710268,4.068162209540195,0.7437389489403659
123,3.0233711110830424,4.172307166371987,8.324699700878252
124,3.0467699581548553,0.3780981215380632,7.791443302168166
125,3.072410863949964,-4.161841451986858,-0.6560466719676628
126,3.0971043358110797,-4.441622399140382,-8.176826661291813
127,3.1205249443285683,-0.5584898987731832,-7.73030373314583
128,3.146168162807535,4.25698520991693,0.567653543274429
129,3.1708372948073276,4.711445150995303,8.018376650057839
130,3.1942810720653454,0.73790381167312,7.659498464980225
131,3.2199274669024196,-4.35302014113535,-0.47855782400032876
132,3.2445700251485583,-4.98109755249333,-7.849329829488159
133,3.268038242173436,-0.916244517703082,-7.578976552886633
134,3.2936887224391285,4.449327458522779,0.38874993521774837
135,3.3183025672286077,5.249817815149303,7.669744722877172
136,3.341796331167466,1.0933801142301958,7.4887596325919885
137,3.367451832169788,-4.54524905371704,-0.29821364409825524
138,3.3920349643459455,-5.516771429852984,-7.479767668277786
139,3.415555191805589,-1.2691468448144132,-7.388950983737791
140,3.441216655495172,4.640095460561442,0.20692750397089288
141,3.4657672621152105,5.78106548191045,7.279639877760122
142,3.4893146545593305,1.4433549227707152,7.279742559854792
143,3.514983010040596,-4.733155587805362,-0.11486648429125701
144,3.5394995077146376,-6.041765736749628,-7.069701526856943
145,3.563074530086082,-1.6157952057681602,-7.161419467290798
146,3.5887506747998072,4.823708023439603,0.022003686572963588
147,3.613231748994876,6.297915940964153,6.85039241144173
148,3.6368346127130926,1.786246387136738,7.034361477499885
149,3.6625193948373087,-4.911033580308825,0.07168799216283706
150,3.6869640334873384,-6.548558592263211,-6.622248875146526
151,3.7105946848698528,-1.9544823247818224,-6.899041305544031
152,3.7362888874259914,4.99442862785656,-0.1662344092416479
153,3.7606964073604185,6.792756281639041,6.3858969193821835
154,3.7843545223295427,2.1202791146369266,6.756019572215198
155,3.810058849384675,-5.073218653138441,0.2616591048193371
156,3.834428914378319,-7.029612621824247,-6.142041642831783
157,3.858113900048079,-2.283421536038798,-6.6059365715326805
158,3.8838289652824263,5.146771429963354,-0.35798275745069397
159,3.9081615949188824,7.258291762180716,5.891453395506801
160,3.9318725983301634,2.443708550068397,6.449501169123508
161,3.957598916105524,-5.214509159292133,0.4552232767715809
162,3.9818944851033677,-7.478035557188299,-5.634951249451555
163,4.005630409013661,-2.60095761266433,-6.28747733865855
164,4.031368387947724,5.275918982399873,-0.5533965869114681
165,4.055627616082872,7.688177599258002,5.373384560811955
166,4.079387141352445,2.75500766215261,6.120668983852771
167,4.105137080289232,-5.330561359383599,0.6525180867849025
168,4.129361013514026,-7.888153532497366,-5.107613508216303
169,4.153142627295754,-2.9057207435794057,-5.949903778618324
170,4.178904713473246,5.378075940827048,-0.7526047039810413
171,4.203094697242105,8.07750731043448,4.838489530114
172,4.226896725907439,3.0529823277584267,5.7760167812526175
173,4.252671035064575,-5.418184725334466,0.8536773971248932
174,4.276828681194493,-8.255893321413847,-4.566836548011038
175,4.300649326735676,-3.1967004612384855,-5.599834541583955
176,4.3264358248723,5.45069247212726,-0.9557639155022333
177,4.350562973473059,8.423074554015034,4.293433761519029
178,4.374400352024497,3.336803938024616,5.422160331568712
179,4.400198898525471,-5.475484507211831,1.058901599776945
180,4.424297576622023,-8.578917188575407,-4.019000650028966
181,4.448149757743252,-3.4732397125929673,-5.2437610039598965
182,4.473960109595185,5.492522207257892,-1.1631400055413001
183,4.498032488039007,8.723382163307976,3.7441846341577723
184,4.521897533489361,3.60596977816303,5.065355836949728
185,4.547719350347999,-5.501836555235845,1.2685431504178153
186,4.571767700491836,-8.85651436608718,-3.469551658501474
187,4.595643701385887,-3.734967718893711,-4.88760757161276
188,4.621476551287158,5.503520229699945,-1.3751912208396435
189,4.6455032027021295,8.978430145139411,3.1955797744267462
190,4.669388314143312,3.860215115831223,4.711115707699438
191,4.6952316796862,-5.497718714792723,1.4831816201838683
192,4.71923897995838,-9.089303819732693,-2.922655642415046
193,4.743131452482402,-3.9816979505468444,-4.536412002280685
194,4.768984737343798,5.48462090490727,-1.5926292889522609
195,4.792975014725311,9.18935381631908,2.651073747479826
196,4.816873222122626,4.099403113230939,4.363958021092397
197,4.842735757791566,-5.464449634216019,1.7036662742497204
198,4.866711287222145,-9.278828969672292,-2.3810380327649763
199,4.890613750531094,-4.213315087975354,-4.194144526315355
200,4.916484803172241,5.437452496422407,-1.8164405654335396
201,4.940447775948974,9.357995425920091,2.1126656053089423
202,4.964353183604251,4.323412859928021,4.027292445804819
203,4.99023196097887,-5.403893243746039,1.931114242826379
204,5.014184458147179,-9.42712447720317,-1.8459921502970027
205,5.0380916824232,-4.42966706832162,-3.863655154011261
206,5.063977340811253,5.364043974914131,-2.047861005888041
207,5.087921310186122,9.486481555836487,1.5809786998516224
208,5.111829420187813,4.532037416274608,3.703421799272274
209,5.1377210712683565,-5.31817824663629,2.166863156771157
210,5.161658307873882,-9.536316526320496,-1.3175194324283481
211,5.185566579398368,-4.630470342153575,-3.5467214306361567
212,5.211463297057823,5.266565176456589,-2.288308116322395
213,5.235395426694333,9.576855340568866,1.05545022205091
214,5.259303349319191,4.724896957143957,3.3936277049369887
215,5.285204176368731,-5.209464549770627,2.4123845445025944
216,5.309132641976396,-9.608293067062283,-0.7945577064355476
217,5.333039923728375,-4.815231258307068,-3.244163987123281
218,5.358943878522725,5.147122901214032,-2.5392781282621937
219,5.382869929003926,9.630788268152411,0.5345886940508442
220,5.406776498932353,4.901368634621232,3.0983086902943984
221,5.432682581892377,-5.07977051031124,2.6691670894206805
222,5.4566072630764815,-9.644458679896143,-0.2752597780304997
223,5.480513272004053,-4.983184694226446,-2.956000733807644
224,5.5064204720543675,5.007619232076482,-2.802217455104015
225,5.530344619532402,9.649378143188802,0.016267066418024
226,5.554250439188633,5.060534453333137,2.817145026249294
227,5.580157740128512,-4.930861073543188,2.9385781254946894
228,5.604081973746329,-9.645574740688748,0.24270402873918817
229,5.627988194410973,-5.13325194009871,-2.6816179037448244
230,5.653894581241739,4.849667425135352,-3.0783757693883516
231,5.677819301113682,9.633030107970242,-0.501968977850193
232,5.701726727813874,5.201150279294545,2.5492724722860207
233,5.727631193048351,-4.764188859584431,3.2217095783315317
234,5.7515565770347505,-9.611679906330572,0.7618343179260516
235,5.775466224254833,-5.264022334766847,-2.419943815172317
236,5.801367774234199,4.674555419099259,-3.3686459156300583
237,5.825293776911054,9.58141546553949,-1.0225878554743502
238,5.849206861692219,5.321641995361009,2.2934540333434317
239,5.8751045229327366,-4.58087732229202,3.519212907672233
240,5.899030876166454,-9.542086624391825,1.2844889193810074
241,5.922948809398633,-5.3737661947443405,-2.1696170876636796
242,5.948841634985377,4.483246034746792,-3.6733950419179937
243,5.972767850305084,9.49350581204083,-1.5477587161118738
244,5.996692225950298,5.420137754818094,2.048243408739658
245,6.022579301987608,-4.381735660058125,3.8311278583490034
246,6.046504675017484,-9.435453420576916,1.8125708708327384
247,6.070437256956806,-5.460489134372045,-1.929144232554905
248,6.096317709076141,4.276404620740234,-3.9922928485349045
249,6.120241326345136,9.367684516046033,-2.079042278176785
250,6.1441840325157795,5.494547147459146,1.8121356103690731
251,6.170057032431521,-4.167297609708747,4.1567127076182935
252,6.193977780911877,-9.289936918128824,2.3472244333340253
253,6.217932664402057,-5.522038687948127,-1.6970420305994978
254,6.243797436495081,4.054447802111673,-4.324147117690877
255,6.26771401622807,9.201940645509717,-2.617095464911157
256,6.291683243030858,5.542697456572382,1.583699580778323
257,6.317539070928699,-3.9378793230716074,4.494289273707572
258,6.341450011069987,-9.10342867283751,2.888553141525142
259,6.365435834268377,-5.556271634059669,-1.4719585714415184
260,6.391282067379694,3.8176099682280658,-4.666763391914131
261,6.415185745932397,8.994148875675934,-3.1614091690910895
262,6.439190476200086,5.562532379349218,1.36168554336703
263,6.465026536149483,-3.693654169622784,4.841123461576473
264,6.488921203546946,-8.873876953347166,3.435385128912209
265,6.512947176004445,-5.561282957874774,-1.2527645872105309
266,6.538772562900984,3.5660261883511826,-5.016853508759699
267,6.56265636945271,8.742430019818007,-3.7101104209037956
268,6.5867059071146645,5.552368225773741,1.1450979220571904
269,6.612520205572416,-3.4347434967779087,5.193369630860626
270,6.636391232598643,-8.599680446242747,3.9851225643977974
271,6.660466606879475,-5.53568411811477,-1.0386057075406985
272,6.686269491690025,3.299830286958188,-5.370024027669096
273,6.710125785951066,8.445569434772242,-4.259870164611806
274,6.73422917495085,5.511186721123481,0.9332251024142542
275,6.760020416284832,-3.161321009280396,5.546111195124815
276,6.783860027073525,-8.280119713564522,4.533718771660963
277,6.80799347262746,-5.478900459453481,-0.8289086285048359
278,6.833772940614433,3.019263808719728,-5.720876359918991
279,6.85759395864211,8.103446680946812,-4.805959739875071
280,6.881759323362956,5.438924909433188,0.7256219487200388
281,6.907526991867368,-2.8737236895120564,5.893526118008264
282,6.931327588857468,-7.915767305769767,5.075822041556641
283,6.955526514605342,-5.39143976616473,-0.6233412154912887
284,6.981282463983357,2.72478520799819,-6.063241103196001
285,7.00506093171604,7.717406122543669,-5.342486809798066
286,7.029294801067148,5.33670755152448,0.5220501850759707
287,7.055039219659489,-2.5725544742325948,6.229190362675753
288,7.078794007107873,-7.508797751060578,5.605104193425482
289,7.103063909438922,-5.2750737520401145,-0.4217373169544416
290,7.128797093534731,2.4171602420328897,-6.390546968206736
291,7.15252684071691,7.290485521636874,-5.862811921706504
292,7.176833544456944,5.206964215152173,0.3223930809694462
293,7.2025558964602165,-2.2587538895027635,6.546504260474964
294,7.226259463711416,-7.063115991858887,6.114754817630861
295,7.25060339612961,-5.132879798558394,-0.22400767529364085
296,7.276315420679855,2.0975081400923443,-6.696292026901936
297,7.299991912226383,6.827429383795861,-6.36010438635106
298,7.324373147827499,5.05338844441115,0.12656931667332127
299,7.350075445674593,-1.9336144466661915,6.8391918644359775
300,7.37372422665494,-6.584246230293174,6.598077556074464
301,7.398142484861961,-4.969115019543632,-0.03006320525983952
302,7.42383574437308,1.767279052366515,-6.974550988755597
303,7.447456450780389,6.33445076925213,-6.827953671990479
304,7.471911103126958,4.88072940612687,-0.06552880263582406
305,7.497596089407543,-1.598717843058302,7.101793823012562
306,7.52118863079283,-6.078971839331318,7.049088940636869
